ID,X,Y,Z
100000,586237.33,4475926.054,2.078
100001,586237.329,4475926.08,2.078
100002,586237.329,4475926.075,2.077
100003,586237.331,4475926.033,2.083
100004,586237.33,4475925.995,2.086
100005,586237.325,4475925.988,2.09
100006,586237.316,4475926.013,2.083
100007,586237.315,4475925.998,2.093
100008,586237.307,4475926.032,2.088
100009,586237.306,4475926.05,2.09
100010,586237.301,4475926.123,2.077
100011,586237.304,4475926.222,2.056
100012,586237.33,4475926.114,2.073
100013,586237.326,4475926.082,2.075
100014,586237.33,4475926.065,2.074
100015,586237.321,4475926.06,2.08
100016,586237.296,4475926.018,2.086
100017,586237.296,4475925.957,2.088
100018,586237.294,4475925.995,2.093
100019,586237.37,4475926.102,2.078
100020,586238.166,4475926.019,2.101
100021,586239.056,4475926.141,2.094
100022,586239.876,4475926.257,2.047
100023,586240.755,4475926.355,2.009
100024,586241.672,4475926.458,2.037
100025,586242.711,4475926.458,1.985
100026,586243.701,4475926.385,1.934
100027,586244.741,4475926.23,1.962
100028,586245.735,4475926.138,1.98
100029,586246.798,4475926.016,2.004
100030,586247.788,4475925.918,2.03
100031,586248.774,4475925.908,2.038
100032,586249.759,4475925.919,2.092
100033,586250.683,4475925.888,2.092
100034,586251.541,4475925.965,2.118
100035,586252.407,4475926.052,2.146
100036,586253.193,4475926.177,2.139
100037,586253.752,4475926.332,2.144
100038,586253.798,4475926.248,2.133
100039,586253.791,4475926.301,2.124
100040,586253.788,4475926.349,2.119
100041,586253.932,4475926.311,2.133
100042,586254.688,4475926.405,2.113
100043,586255.459,4475926.497,2.19
100044,586256.209,4475926.528,2.246
100045,586257.155,4475926.536,2.249
100046,586257.996,4475926.538,2.282
100047,586258.931,4475926.487,2.335
100048,586259.841,4475926.302,2.343
100049,586260.712,4475926.082,2.385
100050,586261.618,4475925.987,2.383
100051,586262.434,4475925.981,2.431
100052,586263.446,4475925.899,2.463
100053,586264.398,4475925.828,2.516
100054,586265.337,4475925.77,2.537
100055,586266.178,4475925.62,2.562
100056,586267.099,4475925.413,2.573
100057,586268,4475925.369,2.62
100058,586268.955,4475925.441,2.668
100059,586269.937,4475925.513,2.695
100060,586270.999,4475925.577,2.711
100061,586272.044,4475925.709,2.734
100062,586273.092,4475925.783,2.741
100063,586274.062,4475925.906,2.752
100064,586275.02,4475925.953,2.757
100065,586275.877,4475926.103,2.771
100066,586276.869,4475926.203,2.785
100067,586277.856,4475926.279,2.763
100068,586278.897,4475926.237,2.763
100069,586279.922,4475926.23,2.754
100070,586280.867,4475926.091,2.74
100071,586281.604,4475926.052,2.717
100072,586282.096,4475925.948,2.692
100073,586282.487,4475925.937,2.708
100074,586282.815,4475925.946,2.702
100075,586283.134,4475925.915,2.68
100076,586283.432,4475926.153,2.65
100077,586283.872,4475926.066,2.645
100078,586284.319,4475925.955,2.636
100079,586284.903,4475925.88,2.604
100080,586285.721,4475925.85,2.557
100081,586286.583,4475925.716,2.505
100082,586287.499,4475925.591,2.435
100083,586288.325,4475925.521,2.359
100084,586289.232,4475925.435,2.296
100085,586290.159,4475925.465,2.214
100086,586291.017,4475925.458,2.137
100087,586291.994,4475925.521,2.057
100088,586292.977,4475925.545,1.981
100089,586294.022,4475925.644,1.892
100090,586295.056,4475925.596,1.799
100091,586296.073,4475925.49,1.712
100092,586297.09,4475925.548,1.61
100093,586297.988,4475925.497,1.523
100094,586298.84,4475925.404,1.429
100095,586299.809,4475925.352,1.318
100096,586300.797,4475925.362,1.204
100097,586301.84,4475925.475,1.092
100098,586302.717,4475925.613,0.987
100099,586303.753,4475925.714,0.86
100100,586304.857,4475925.811,0.741
100101,586305.954,4475925.945,0.628
100102,586307.014,4475926.045,0.514
100103,586308.12,4475926.115,0.381
100104,586309.24,4475926.154,0.259
100105,586310.36,4475926.09,0.125
100106,586311.516,4475925.948,0.009
100107,586312.611,4475925.86,-0.1
100108,586313.766,4475925.724,-0.217
100109,586314.791,4475925.601,-0.329
100110,586315.819,4475925.556,-0.434
100111,586316.844,4475925.432,-0.542
100112,586317.828,4475925.314,-0.628
100113,586318.601,4475925.09,-0.706
100114,586319.021,4475925.047,-0.754
100115,586319.009,4475925.088,-0.754
100116,586318.991,4475925.073,-0.746
100117,586318.988,4475925.1,-0.763
100118,586318.981,4475925.117,-0.772
100119,586318.981,4475925.105,-0.779
100120,586322.959,4475900.555,-0.761
100121,586322.959,4475900.56,-0.761
100122,586322.954,4475900.567,-0.759
100123,586322.95,4475900.565,-0.755
100124,586322.947,4475900.572,-0.751
100125,586322.942,4475900.569,-0.75
100126,586322.721,4475900.512,-0.721
100127,586322.128,4475900.468,-0.665
100128,586321.518,4475900.403,-0.604
100129,586320.919,4475900.289,-0.53
100130,586320.297,4475900.216,-0.45
100131,586319.619,4475900.106,-0.373
100132,586318.875,4475900.001,-0.287
100133,586318.242,4475899.901,-0.231
100134,586317.639,4475899.854,-0.163
100135,586317.176,4475899.817,-0.125
100136,586316.938,4475899.809,-0.103
100137,586316.926,4475899.791,-0.1
100138,586316.928,4475899.765,-0.095
100139,586316.931,4475899.83,-0.095
100140,586316.935,4475899.885,-0.093
100141,586316.93,4475900.001,-0.102
100142,586316.931,4475899.987,-0.098
100143,586316.929,4475899.932,-0.101
100144,586316.921,4475899.891,-0.106
100145,586316.931,4475899.897,-0.102
100146,586316.942,4475899.979,-0.104
100147,586316.844,4475899.789,-0.092
100148,586316.366,4475899.818,-0.041
100149,586315.63,4475899.943,0.055
100150,586314.899,4475900.014,0.144
100151,586314.185,4475900.06,0.242
100152,586313.438,4475899.965,0.325
100153,586312.648,4475899.927,0.407
100154,586311.674,4475899.972,0.53
100155,586310.777,4475900.002,0.611
100156,586309.818,4475899.883,0.719
100157,586308.943,4475899.778,0.823
100158,586307.925,4475899.775,0.921
100159,586306.896,4475899.832,1.02
100160,586306.029,4475900.048,1.133
100161,586305.231,4475900.151,1.189
100162,586304.567,4475900.27,1.277
100163,586303.726,4475900.393,1.366
100164,586302.91,4475900.57,1.454
100165,586302.246,4475900.682,1.524
100166,586301.481,4475900.787,1.617
100167,586300.881,4475900.823,1.683
100168,586300.186,4475900.843,1.752
100169,586299.481,4475900.888,1.815
100170,586298.784,4475900.729,1.888
100171,586298.027,4475900.538,1.954
100172,586297.281,4475900.476,2.022
100173,586296.711,4475900.326,2.069
100174,586296.188,4475900.29,2.102
100175,586295.913,4475900.092,2.133
100176,586295.633,4475899.956,2.153
100177,586295.261,4475899.834,2.166
100178,586294.942,4475899.924,2.2
100179,586294.391,4475899.967,2.253
100180,586293.613,4475899.882,2.311
100181,586292.748,4475899.764,2.393
100182,586291.885,4475899.578,2.449
100183,586291.143,4475899.413,2.508
100184,586290.364,4475899.254,2.564
100185,586289.563,4475899.12,2.621
100186,586288.787,4475899.012,2.669
100187,586288.067,4475898.994,2.699
100188,586287.358,4475898.929,2.713
100189,586286.552,4475898.915,2.727
100190,586285.767,4475898.849,2.753
100191,586285.024,4475898.81,2.773
100192,586284.36,4475898.956,2.811
100193,586283.631,4475899.165,2.806
100194,586282.747,4475899.281,2.787
100195,586281.824,4475899.288,2.782
100196,586280.915,4475899.399,2.784
100197,586280.122,4475899.542,2.782
100198,586279.221,4475899.649,2.779
100199,586278.276,4475899.664,2.761
100200,586277.239,4475899.571,2.749
100201,586276.254,4475899.544,2.733
100202,586275.407,4475899.524,2.701
100203,586274.435,4475899.45,2.694
100204,586273.385,4475899.463,2.644
100205,586272.498,4475899.413,2.634
100206,586271.615,4475899.443,2.591
100207,586270.708,4475899.407,2.571
100208,586269.834,4475899.529,2.564
100209,586268.856,4475899.621,2.572
100210,586267.917,4475899.721,2.544
100211,586267.121,4475899.633,2.516
100212,586266.128,4475899.613,2.467
100213,586265.265,4475899.622,2.444
100214,586264.223,4475899.62,2.389
100215,586263.11,4475899.729,2.34
100216,586262.089,4475899.824,2.27
100217,586261.088,4475899.902,2.189
100218,586260.069,4475899.946,2.115
100219,586259.015,4475899.998,2.039
100220,586257.966,4475900.046,1.999
100221,586256.933,4475900.114,1.963
100222,586255.947,4475900.136,1.971
100223,586254.891,4475900.211,1.903
100224,586253.829,4475900.171,1.89
100225,586252.878,4475900.18,1.827
100226,586251.762,4475900.124,1.84
100227,586250.565,4475900.022,1.818
100228,586249.596,4475899.981,1.816
100229,586248.767,4475899.88,1.835
100230,586247.822,4475899.806,1.822
100231,586246.916,4475899.737,1.852
100232,586245.913,4475899.774,1.872
100233,586244.973,4475899.868,1.926
100234,586244.185,4475899.863,2.008
100235,586243.326,4475899.845,2.041
100236,586242.556,4475899.823,2.101
100237,586241.702,4475899.851,2.154
100238,586240.877,4475899.946,2.211
100239,586240.148,4475899.983,2.276
100240,586239.337,4475899.93,2.351
100241,586238.656,4475899.949,2.449
100242,586237.916,4475899.962,2.552
100243,586237.241,4475900.075,2.692
100244,586236.553,4475900.101,2.811
100245,586236.35,4475900.094,2.849
100246,586236.368,4475900.106,2.836
100247,586236.377,4475900.122,2.839
100248,586236.377,4475900.125,2.842
100249,586236.375,4475900.13,2.846
100250,586236.382,4475900.14,2.841
100251,586236.393,4475900.157,2.841
100252,586235.706,4475875.457,2.809
100253,586235.71,4475875.458,2.806
100254,586235.708,4475875.466,2.811
100255,586235.807,4475875.468,2.809
100256,586236.145,4475875.46,2.762
100257,586236.656,4475875.373,2.672
100258,586237.096,4475875.329,2.578
100259,586237.541,4475875.276,2.52
100260,586237.552,4475875.304,2.511
100261,586237.433,4475875.336,2.511
100262,586237.695,4475875.508,2.499
100263,586237.999,4475875.689,2.475
100264,586238.49,4475875.793,2.416
100265,586239.089,4475875.939,2.346
100266,586239.813,4475876.004,2.266
100267,586240.685,4475875.79,2.174
100268,586241.622,4475875.802,2.079
100269,586242.596,4475875.662,2.023
100270,586243.577,4475875.507,1.949
100271,586244.53,4475875.333,1.889
100272,586245.591,4475875.155,1.821
100273,586246.583,4475875.091,1.764
100274,586247.569,4475875.045,1.715
100275,586248.544,4475874.988,1.668
100276,586249.501,4475874.999,1.643
100277,586250.494,4475874.972,1.587
100278,586251.532,4475874.944,1.581
100279,586252.39,4475875.028,1.59
100280,586253.294,4475875.02,1.587
100281,586254.02,4475875.025,1.635
100282,586254.827,4475875.113,1.686
100283,586255.826,4475875.165,1.75
100284,586256.836,4475875.364,1.744
100285,586257.753,4475875.455,1.81
100286,586258.695,4475875.526,1.857
100287,586259.573,4475875.59,1.811
100288,586260.267,4475875.65,1.918
100289,586261.02,4475875.704,1.91
100290,586261.767,4475875.767,1.919
100291,586262.534,4475875.752,1.933
100292,586263.383,4475875.739,1.982
100293,586264.258,4475875.666,2.045
100294,586265.177,4475875.496,2.147
100295,586266.044,4475875.409,2.19
100296,586267.047,4475875.253,2.27
100297,586267.879,4475875.169,2.32
100298,586268.766,4475875.152,2.377
100299,586269.623,4475875.191,2.354
100300,586270.512,4475875.152,2.403
100301,586271.315,4475875.125,2.415
100302,586272.191,4475875.154,2.458
100303,586273.088,4475875.125,2.483
100304,586274.051,4475875.165,2.529
100305,586275.056,4475875.193,2.587
100306,586276.012,4475875.245,2.635
100307,586276.913,4475875.254,2.66
100308,586277.694,4475875.311,2.705
100309,586278.606,4475875.316,2.684
100310,586279.555,4475875.28,2.689
100311,586280.494,4475875.291,2.725
100312,586281.568,4475875.37,2.692
100313,586282.624,4475875.439,2.709
100314,586283.607,4475875.381,2.699
100315,586284.452,4475875.351,2.731
100316,586285.332,4475875.257,2.737
100317,586286.245,4475875.095,2.746
100318,586287.177,4475875.035,2.735
100319,586288.093,4475875.009,2.722
100320,586289.119,4475875.007,2.699
100321,586290.128,4475874.956,2.701
100322,586291.027,4475874.869,2.667
100323,586291.935,4475874.776,2.641
100324,586292.88,4475874.813,2.591
100325,586293.762,4475874.93,2.553
100326,586294.559,4475875.037,2.497
100327,586295.392,4475875.155,2.444
100328,586296.171,4475875.258,2.377
100329,586297.06,4475875.364,2.31
100330,586297.906,4475875.487,2.237
100331,586298.699,4475875.537,2.181
100332,586299.576,4475875.611,2.11
100333,586300.527,4475875.648,2.042
100334,586301.509,4475875.719,1.96
100335,586302.424,4475875.82,1.878
100336,586303.379,4475875.912,1.794
100337,586304.272,4475875.957,1.693
100338,586305.17,4475876.005,1.594
100339,586306.044,4475875.939,1.492
100340,586306.982,4475875.897,1.39
100341,586307.861,4475875.912,1.287
100342,586308.742,4475875.737,1.186
100343,586309.576,4475875.639,1.11
100344,586310.497,4475875.556,1.01
100345,586311.465,4475875.424,0.914
100346,586312.413,4475875.322,0.818
100347,586313.314,4475875.181,0.716
100348,586314.41,4475875.013,0.6
100349,586315.385,4475874.854,0.487
100350,586316.521,4475874.809,0.358
100351,586317.512,4475874.674,0.243
100352,586318.585,4475874.562,0.112
100353,586319.687,4475874.48,-0.015
100354,586320.598,4475874.496,-0.118
100355,586321.589,4475874.524,-0.22
100356,586322.47,4475874.659,-0.333
100357,586323.403,4475874.821,-0.426
100358,586324.325,4475874.999,-0.538
100359,586325.223,4475875.264,-0.634
100360,586326.165,4475875.505,-0.73
100361,586326.987,4475875.683,-0.841
100362,586327.394,4475875.78,-0.868
100363,586327.383,4475875.765,-0.869
100364,586327.363,4475875.816,-0.866
100365,586327.346,4475875.848,-0.862
100366,586327.361,4475875.812,-0.861
100367,586327.358,4475875.806,-0.862
100368,586327.356,4475875.809,-0.861
100369,586330.407,4475850.65,-0.876
100370,586330.407,4475850.67,-0.883
100371,586330.396,4475850.664,-0.886
100372,586330.374,4475850.66,-0.879
100373,586330.13,4475850.724,-0.851
100374,586329.642,4475850.651,-0.798
100375,586328.922,4475850.53,-0.721
100376,586328.195,4475850.471,-0.647
100377,586327.376,4475850.556,-0.563
100378,586326.463,4475850.766,-0.466
100379,586325.63,4475850.823,-0.364
100380,586324.785,4475850.696,-0.278
100381,586324.019,4475850.588,-0.195
100382,586323.119,4475850.461,-0.111
100383,586322.331,4475850.349,-0.017
100384,586321.535,4475850.289,0.072
100385,586320.719,4475850.19,0.157
100386,586319.933,4475850.12,0.255
100387,586319.121,4475850.158,0.373
100388,586318.296,4475850.143,0.465
100389,586317.486,4475850.044,0.559
100390,586316.581,4475850.052,0.654
100391,586315.633,4475850.131,0.742
100392,586314.645,4475850.152,0.838
100393,586313.72,4475850.182,0.915
100394,586312.856,4475850.26,0.99
100395,586312.044,4475850.317,1.058
100396,586311.287,4475850.306,1.125
100397,586310.614,4475850.193,1.204
100398,586309.82,4475850.142,1.264
100399,586309.011,4475850.192,1.347
100400,586308.187,4475850.147,1.433
100401,586307.349,4475850.154,1.534
100402,586306.757,4475850.192,1.593
100403,586306.09,4475850.142,1.675
100404,586305.608,4475850.097,1.735
100405,586304.973,4475849.942,1.808
100406,586304.471,4475849.856,1.871
100407,586303.936,4475849.852,1.934
100408,586303.267,4475849.797,2.014
100409,586302.553,4475849.861,2.096
100410,586301.813,4475849.901,2.158
100411,586300.974,4475849.923,2.232
100412,586300.151,4475850.014,2.3
100413,586299.437,4475849.978,2.378
100414,586298.648,4475850.032,2.439
100415,586297.782,4475850.121,2.523
100416,586296.917,4475850.149,2.582
100417,586296.158,4475850.172,2.626
100418,586295.302,4475850.173,2.655
100419,586294.525,4475850.234,2.694
100420,586293.694,4475850.259,2.678
100421,586292.867,4475850.247,2.655
100422,586292.091,4475850.217,2.7
100423,586291.122,4475850.207,2.714
100424,586290.191,4475850.152,2.732
100425,586289.274,4475850.111,2.732
100426,586288.342,4475850.029,2.735
100427,586287.344,4475849.988,2.714
100428,586286.286,4475849.9,2.696
100429,586285.322,4475849.872,2.691
100430,586284.382,4475849.852,2.705
100431,586283.319,4475849.74,2.672
100432,586282.188,4475849.692,2.649
100433,586281.155,4475849.641,2.633
100434,586280.186,4475849.606,2.635
100435,586279.155,4475849.697,2.63
100436,586278.166,4475849.711,2.541
100437,586277.173,4475849.724,2.481
100438,586276.142,4475849.799,2.459
100439,586275.12,4475849.805,2.424
100440,586274.087,4475849.846,2.381
100441,586273.039,4475849.894,2.343
100442,586272.012,4475850.002,2.325
100443,586270.971,4475850.052,2.255
100444,586269.966,4475850.061,2.24
100445,586268.942,4475850.046,2.145
100446,586268.025,4475850.038,2.116
100447,586267.002,4475849.933,2.05
100448,586265.886,4475849.787,1.992
100449,586264.999,4475849.564,1.987
100450,586263.934,4475849.416,1.905
100451,586262.932,4475849.303,1.871
100452,586261.945,4475849.092,1.826
100453,586260.973,4475848.92,1.783
100454,586259.959,4475848.731,1.753
100455,586259.063,4475848.596,1.782
100456,586258.089,4475848.418,1.745
100457,586257.041,4475848.175,1.737
100458,586256.011,4475847.98,1.764
100459,586255.024,4475847.927,1.742
100460,586254.401,4475848.03,1.757
100461,586254.148,4475847.93,1.754
100462,586254.136,4475847.877,1.749
100463,586254.133,4475847.866,1.755
100464,586254.104,4475847.87,1.759
100465,586253.751,4475848.047,1.771
100466,586253.103,4475848.33,1.78
100467,586252.369,4475848.883,1.752
100468,586251.737,4475849.435,1.776
100469,586250.8,4475850.047,1.751
100470,586249.937,4475850.515,1.769
100471,586249.231,4475850.895,1.805
100472,586248.368,4475850.943,1.824
100473,586247.323,4475850.787,1.886
100474,586246.404,4475850.615,1.913
100475,586245.544,4475850.388,1.943
100476,586244.738,4475850.03,2.005
100477,586243.871,4475849.716,1.985
100478,586242.954,4475849.39,2.024
100479,586241.929,4475849.174,2.05
100480,586241.307,4475849.075,2.051
100481,586241.026,4475849.166,2.048
100482,586240.322,4475849.228,2.081
100483,586239.499,4475849.449,2.159
100484,586238.636,4475849.791,2.227
100485,586237.599,4475850.103,2.349
100486,586236.38,4475850.324,2.543
100487,586235.462,4475850.403,2.706
100488,586235.044,4475850.188,2.769
100489,586234.965,4475850.282,2.788
100490,586234.921,4475850.31,2.784
100491,586234.924,4475850.312,2.783
100492,586234.936,4475850.308,2.778
100493,586236.018,4475824.538,2.344
100494,586236.019,4475824.534,2.343
100495,586236.022,4475824.518,2.339
100496,586236.022,4475824.532,2.34
100497,586236.028,4475824.56,2.342
100498,586236.444,4475824.433,2.341
100499,586237.12,4475824.547,2.289
100500,586237.881,4475824.686,2.29
100501,586238.062,4475824.665,2.282
100502,586237.957,4475824.64,2.359
100503,586238.635,4475824.758,2.344
100504,586239.574,4475824.856,2.299
100505,586240.24,4475824.986,2.249
100506,586240.94,4475825.1,2.33
100507,586241.82,4475825.226,2.258
100508,586242.629,4475825.338,2.317
100509,586243.558,4475825.566,2.248
100510,586244.294,4475825.641,2.247
100511,586245.196,4475825.838,2.175
100512,586245.916,4475825.856,2.169
100513,586246.566,4475825.885,2.159
100514,586246.728,4475825.831,2.166
100515,586246.638,4475825.875,2.161
100516,586246.93,4475825.974,2.164
100517,586247.751,4475826.18,2.123
100518,586248.578,4475826.316,2.09
100519,586249.658,4475826.526,1.998
100520,586250.537,4475826.805,1.997
100521,586250.989,4475827.056,1.976
100522,586250.917,4475826.99,1.966
100523,586250.902,4475826.986,1.963
100524,586250.892,4475827.008,1.957
100525,586250.89,4475827.029,1.954
100526,586250.92,4475826.917,1.965
100527,586250.919,4475826.931,1.977
100528,586250.921,4475826.933,1.974
100529,586250.989,4475826.915,1.976
100530,586251.463,4475827.067,1.971
100531,586252.199,4475827.478,1.921
100532,586252.912,4475827.503,1.926
100533,586253.748,4475827.556,1.926
100534,586254.506,4475827.58,1.899
100535,586255.287,4475827.389,1.877
100536,586256.371,4475826.964,1.842
100537,586257.246,4475826.318,1.821
100538,586258.013,4475825.62,1.826
100539,586258.809,4475825.146,1.809
100540,586259.668,4475824.802,1.786
100541,586260.594,4475824.706,1.83
100542,586261.465,4475824.723,1.84
100543,586262.381,4475824.656,1.881
100544,586263.154,4475824.712,1.878
100545,586263.988,4475824.591,1.893
100546,586264.823,4475824.479,1.914
100547,586265.723,4475824.41,1.92
100548,586266.489,4475824.434,1.934
100549,586267.169,4475824.443,1.924
100550,586267.731,4475824.479,1.94
100551,586268.21,4475824.561,1.981
100552,586269.039,4475824.677,1.96
100553,586269.642,4475824.838,2.002
100554,586270.614,4475824.907,2.01
100555,586271.435,4475825.057,2.054
100556,586272.271,4475825.192,2.093
100557,586273.157,4475825.357,2.117
